All days with start 2022-01-01,theoretical curve (deg),fitted curve (deg),Days when measured alpha,alpha naive min (deg),uncertainty_pm (deg)
0.0,80.77215930236207,80.81690791047356,5.0,80.25,0.5
1.0,80.69962420154593,80.70472311057011,20.0,77.5,0.5
2.0,80.6202674744245,80.58617469978053,21.0,77.0,0.5
3.0,80.53411263610865,80.46129589426931,24.0,76.75,0.5
4.0,80.44118521613636,80.33012168391883,27.0,75.75,0.5
5.0,80.34151275090771,80.19268882252548,29.0,75.0,0.5
6.0,80.23512477552525,80.04903581750156,30.0,74.75,0.5
7.0,80.12205281504212,79.8992029190859,40.0,71.75,0.5
8.0,80.00233037512052,79.7432321090661,53.0,67.375,0.5
9.0,79.8759929321032,79.58116708901565,58.0,65.375,0.5
10.0,79.74307792250114,79.41305326804913,63.0,63.5,0.5
11.0,79.6036247319002,79.23893775009898,64.0,63.25,0.5
12.0,79.4576746832904,79.05886932071745,71.0,60.5,0.5
13.0,79.30527102482102,78.87289843340733,72.0,60.0,0.5
14.0,79.14645891698521,78.68107719548532,73.0,59.75,0.5
15.0,78.98128541923795,78.4834593534821,76.0,58.625,0.5
16.0,78.80979947605137,78.28010027808301,79.0,57.375,0.5
17.0,78.63205190241139,78.07105694861369,107.0,46.75,0.5
18.0,78.44809536876019,77.85638793707501,112.0,45.0,0.5
19.0,78.25798438538882,77.6361533917318,133.0,39.0,0.5
20.0,78.06177528628456,77.41041502025975,147.0,36.0,0.5
21.0,77.85952621243803,77.17923607245558,155.0,35.0,0.5
22.0,77.65129709461469,76.94268132251501,163.0,34.5,0.5
23.0,77.43714963559611,76.70081705088363,164.0,34.5,0.5
24.0,77.21714729189608,76.4537110256857,165.0,34.25,0.5
25.0,76.99135525495707,76.20143248373624,166.0,34.25,0.5
26.0,76.75984043183263,75.9440521111414,167.0,34.25,0.5
27.0,76.52267142536134,75.68164202349298,171.0,34.25,0.5
28.0,76.27991851383834,75.41427574566224,185.0,34.75,0.5
29.0,76.03165363019036,75.1420281911989,186.0,35.0,0.5
30.0,75.77795034066041,74.86497564134116,188.0,35.25,0.5
31.0,75.51888382300857,74.58319572364228,199.0,36.75,0.5
32.0,75.25453084423509,74.29676739022013,212.0,39.75,0.5
33.0,74.98496973783281,74.00577089563554,216.0,40.75,0.5
34.0,74.71028038057518,73.71028777440569,225.0,43.75,0.5
35.0,74.430544168847,73.41040081815893,228.0,44.25,0.5
36.0,74.14584399452505,73.10619405243727,229.0,44.5,0.5
37.0,73.85626422041527,72.79775271315329,233.0,46.0,0.5
38.0,73.56189065525439,72.48516322270774,234.0,46.25,0.5
39.0,73.26281052828288,72.16851316577487,259.0,55.25,0.5
40.0,72.95911246339702,71.84789126476194,,,
41.0,72.6508864528878,71.5233873549501,,,
42.0,72.33822383077418,71.19509235932328,,,
43.0,72.0212172457389,70.86309826309255,,,
44.0,71.69996063367469,70.52749808792257,,,
45.0,71.37454918984896,70.18838586586787,,,
46.0,71.0450793406955,69.84585661302596,,,
47.0,70.71164871524113,69.50000630291461,,,
48.0,70.3743561161762,69.15093183958106,,,
49.0,70.0333014905772,68.79873103045036,,,
50.0,69.68858590029026,68.4435025589206,,,
51.0,69.34031149198432,68.08534595671279,,,
52.0,68.98858146688296,67.72436157598301,,,
53.0,68.63350005018357,67.36065056120461,,,
54.0,68.27517246017322,66.9943148208285,,,
55.0,67.91370487705015,66.62545699872938,,,
56.0,67.54920441146035,66.25418044544577,,,
57.0,67.18177907275835,65.88058918922228,,,
58.0,66.81153773700167,65.50478790686178,,,
59.0,66.4385901146886,65.12688189439595,,,
60.0,66.06304671824847,64.74697703758233,,,
61.0,65.68501882929453,64.36517978223608,,,
62.0,65.30461846564882,63.981597104404884,,,
63.0,64.92195834814878,63.596336480395216,,,
64.0,64.53715186724568,63.209505856658495,,,
65.0,64.15031304940467,62.82121361954552,,,
66.0,63.761556523316116,62.43156856493757,,,
67.0,63.37099748592873,62.04067986776284,,,
68.0,62.97875166831428,61.64865705140662,,,
69.0,62.58493530137386,61.2556099570239,,,
70.0,62.18966508139626,60.86164871276283,,,
71.0,61.79305813547828,60.46688370290788,,,
72.0,61.39523198681748,60.07142553695121,,,
73.0,60.99630451988749,59.67538501860084,,,
74.0,60.59639394550634,59.27887311473457,,,
75.0,60.195618765807986,58.88200092430803,,,
76.0,59.79409773912761,58.484879647225775,,,
77.0,59.391949844810945,58.08762055318417,,,
78.0,58.98929424795815,57.6903349504946,,,
79.0,58.58625026411257,57.29313415489591,,,
80.0,58.18293732390505,56.896129458364804,,,
81.0,57.77947493766397,56.49943209793284,,,
82.0,57.375982660001796,56.10315322451885,,,
83.0,56.97258005438848,55.7074038717855,,,
84.0,56.5693866577222,55.31229492502866,,,
85.0,56.16652194490803,54.917937090108396,,,
86.0,55.764105293454904,54.52444086243022,,,
87.0,55.3622559481015,54.13191649598526,,,
88.0,54.96109298548147,53.740473972458176,,,
89.0,54.56073527883845,53.350222970411274,,,
90.0,54.16130146280135,52.96127283455358,,,
91.0,53.762909898230326,52.573732545103525,,,
92.0,53.36567863714398,52.18771068725363,,,
93.0,52.96972538773792,51.803315420745975,,,
94.0,52.575167479505296,51.42065444956685,,,
95.0,52.1821218284696,51.0398349917691,,,
96.0,51.79070490253984,50.66096374943058,,,
97.0,51.40103268699864,50.28414687875728,,,
98.0,51.013220650133285,49.909489960339315,,,
99.0,50.62738370901996,49.53709796956821,,,
100.0,50.24363619547135,49.16707524722378,,,
101.0,49.8620918221577,48.799525470238834,,,
102.0,49.482863648911206,48.43455162264983,,,
103.0,49.10606404922402,48.072255966741714,,,
104.0,48.73180467694952,47.71274001439498,,,
105.0,48.36019643321689,47.356104498642985,,,
106.0,47.99134943356873,47.002449345447474,,,
107.0,47.62537297533139,46.65187364570028,,,
108.0,47.262375505227865,46.30447562745894,,,
109.0,46.90246458724268,45.96035262842412,,,
110.0,46.54574687074835,45.61960106866654,,,
111.0,46.19232805890286,45.28231642361087,,,
112.0,45.842312877327565,44.948593197284495,,,
113.0,45.49580504307472,44.6185248958383,,,
114.0,45.15290723389386,44.29220400134712,,,
115.0,44.81372105780619,43.96972194589721,,,
116.0,44.478347022995905,43.65116908596768,,,
117.0,44.14688450802751,43.336634677113544,,,
118.0,43.81943173239773,43.026206848957145,,,
119.0,43.49608572743099,42.71997258049497,,,
120.0,43.17694230752693,42.41801767572705,,,
121.0,42.86209604176855,42.1204267396154,,,
122.0,42.55164022589935,41.82728315437851,,,
123.0,42.24566685467774,41.538669056128455,,,
124.0,41.94426659461707,41.25466531185707,,,
125.0,41.64752875711913,40.9753514967778,,,
126.0,41.35554127200932,40.700805872029456,,,
127.0,41.06839066148107,40.431105362748156,,,
128.0,40.7861620144575,40.16632553651364,,,
129.0,40.50893896137771,39.906540582175936,,,
130.0,40.23680364941531,39.651823289068304,,,
131.0,39.96983671813638,39.40224502661238,,,
132.0,39.70811727560427,39.157875724321066,,,
133.0,39.451722874938184,38.918783852204996,,,
134.0,39.20072949133248,38.68503640158785,,,
135.0,38.95521149954361,38.456698866335984,,,
136.0,38.71524165185124,38.233835224507686,,,
137.0,38.480891056500205,38.01650792042713,,,
138.0,38.25222915662963,37.80477784718797,,,
139.0,38.02932370969537,37.59870432959178,,,
140.0,37.81224076739204,37.398345107525735,,,
141.0,37.601044656080475,37.203756319784404,,,
142.0,37.39579795772646,37.01499248834024,,,
143.0,37.19656149135626,36.83210650306698,,,
144.0,37.003394295034795,36.65514960692042,,,
145.0,36.81635360837118,36.484171381580595,,,
146.0,36.63549485555757,36.31921973355951,,,
147.0,36.46087162894565,36.16034088077808,,,
148.0,36.29253567316616,36.00757933961639,,,
149.0,36.130536869795776,35.86097791244056,,,
150.0,35.974923222576166,35.72057767560995,,,
151.0,35.82574084318941,35.58641796796793,,,
152.0,35.683033937594146,35.45853637981952,,,
153.0,35.546844792926365,35.336968742398895,,,
154.0,35.41721376496885,35.221749117829866,,,
155.0,35.29417926619283,35.112909789581934,,,
156.0,35.17777775437558,35.01048125342477,,,
157.0,35.06804372179725,34.914492208883644,,,
158.0,34.96500968501992,34.824969551198,,,
159.0,34.86870617525234,34.7419383637857,,,
160.0,34.779161729302864,34.665421911214885,,,
161.0,34.69640288112335,34.59544163268546,,,
162.0,34.62045415394659,34.532017136022,,,
163.0,34.55133805301956,34.47516619217987,,,
164.0,34.48907505893462,34.424904730265936,,,
165.0,34.43368362156065,34.38124683307535,,,
166.0,34.38518015457599,34.34420473314576,,,
167.0,34.3435790306047,34.313788809329786,,,
168.0,34.308892576957646,34.29000758388701,,,
169.0,34.28113107197964,34.272867720096095,,,
170.0,34.26030274200373,34.26237402038781,,,
171.0,34.24641375891362,34.25852942499942,,,
172.0,34.23946823831474,34.26133501115089,,,
173.0,34.23946823831474,34.270789992743005,,,
174.0,34.24641375891362,34.28689172057767,,,
175.0,34.26030274200373,34.309635683100176,,,
176.0,34.28113107197964,34.339015507663305,,,
177.0,34.308892576957646,34.375022962312876,,,
178.0,34.3435790306047,34.417647958094264,,,
179.0,34.38518015457599,34.46687855187922,,,
180.0,34.43368362156065,34.522700949712274,,,
181.0,34.48907505893462,34.58509951067559,,,
182.0,34.55133805301956,34.6540567512715,,,
183.0,34.62045415394658,34.729553350321126,,,
184.0,34.69640288112335,34.81156815437807,,,
185.0,34.779161729302864,34.90007818365538,,,
186.0,34.86870617525234,34.99505863846427,,,
187.0,34.96500968501992,35.09648290616277,,,
188.0,35.06804372179725,35.20432256861234,,,
189.0,35.17777775437559,35.31854741014037,,,
190.0,35.29417926619281,35.43912542600631,,,
191.0,35.41721376496884,35.56602283136918,,,
192.0,35.546844792926365,35.699204070753645,,,
193.0,35.683033937594146,35.838631828012424,,,
194.0,35.82574084318941,35.984267036781894,,,
195.0,35.97492322257616,36.136068891428124,,,
196.0,36.130536869795776,36.293994858480254,,,
197.0,36.29253567316615,36.45800068854795,,,
198.0,36.46087162894564,36.62804042871967,,,
199.0,36.63549485555757,36.804066435438294,,,
200.0,36.81635360837119,36.98602938785034,,,
201.0,37.003394295034795,37.17387830162525,,,
202.0,37.19656149135627,37.36756054324073,,,
203.0,37.39579795772645,37.567021844730135,,,
204.0,37.601044656080475,37.77220631888792,,,
205.0,37.81224076739204,37.98305647492862,,,
206.0,38.02932370969537,38.199513234595315,,,
207.0,38.252229156629625,38.421515948712766,,,
208.0,38.4808910565002,38.649002414180806,,,
209.0,38.715241651851244,38.881908891402986,,,
210.0,38.95521149954361,39.12017012214588,,,
211.0,39.20072949133249,39.36371934782383,,,
212.0,39.451722874938184,39.61248832820405,,,
213.0,39.708117275604266,39.86640736052695,,,
214.0,39.96983671813638,40.12540529903618,,,
215.0,40.23680364941531,40.389409574913,,,
216.0,40.50893896137771,40.6583462166094,,,
217.0,40.78616201445749,40.93213987057425,,,
218.0,41.06839066148106,41.21071382236666,,,
219.0,41.355541272009305,41.49399001815063,,,
220.0,41.64752875711913,41.78188908656508,,,
221.0,41.94426659461706,42.07433036096288,,,
222.0,42.24566685467774,42.37123190201295,,,
223.0,42.55164022589935,42.67251052065888,,,
224.0,42.862096041768545,42.97808180142775,,,
225.0,43.17694230752693,43.287860126082556,,,
226.0,43.49608572743097,43.60175869761164,,,
227.0,43.81943173239773,43.91968956454839,,,
228.0,44.146884508027505,44.241563645614434,,,
229.0,44.478347022995905,44.56729075467943,,,
230.0,44.81372105780617,44.89677962603035,,,
231.0,45.15290723389386,45.22993793994327,,,
232.0,45.49580504307471,45.5666723485505,,,
233.0,45.84231287732757,45.906888501995795,,,
234.0,46.19232805890285,46.25049107487037,,,
235.0,46.545746870748346,46.59738379292212,,,
236.0,46.90246458724267,46.947469460030774,,,
237.0,47.262375505227865,47.300649985441396,,,
238.0,47.62537297533137,47.656826411248446,,,
239.0,47.99134943356872,48.01589894012293,,,
240.0,48.36019643321688,48.377766963274624,,,
241.0,48.73180467694952,48.74232908864182,,,
242.0,49.10606404922402,49.109483169300226,,,
243.0,49.48286364891121,49.479126332083865,,,
244.0,49.862091822157694,49.851155006409,,,
245.0,50.24363619547136,50.2254649532937,,,
246.0,50.627383709019945,50.6019512945647,,,
247.0,51.01322065013328,50.98050854224306,,,
248.0,51.401032686998626,51.36103062810123,,,
249.0,51.79070490253983,51.74341093338221,,,
250.0,52.18212182846958,52.12754231867317,,,
251.0,52.57516747950529,52.51331715392483,,,
252.0,52.96972538773791,52.90062734860856,,,
253.0,53.365678637143986,53.28936438200226,,,
254.0,53.76290989823032,53.679419333596854,,,
255.0,54.16130146280135,54.07068291361485,,,
256.0,54.56073527883844,54.46304549363219,,,
257.0,54.961092985481464,54.8563971372953,,,
258.0,55.36225594810148,55.25062763112416,,,
259.0,55.76410529345489,55.64562651539303,,,
260.0,56.16652194490803,56.041283115080404,,,
261.0,56.56938665772219,56.43748657087884,,,
262.0,56.97258005438847,56.834125870257054,,,
263.0,57.375982660001796,57.23108987856437,,,
264.0,57.779474937663956,57.628267370169695,,,
265.0,58.18293732390505,58.02554705962593,,,
266.0,58.586250264112564,58.42281763285097,,,
267.0,58.989294247958135,58.81996777831713,,,
268.0,59.391949844810945,59.21688621823938,,,
