All days with start 2021-01-01,theoretical curve (deg),fitted curve (deg),Days when measured alpha,alpha naive min (deg),uncertainty_pm (deg)
0.0,80.77215930236207,79.93899539315218,57.0,66.5,1.5
1.0,80.69962420154593,79.86154755720383,58.0,66.0,1.5
2.0,80.6202674744245,79.77738253921949,63.0,64.5,1.5
3.0,80.53411263610865,79.68652532683166,68.0,62.0,1.5
4.0,80.44118521613636,79.58900289450891,79.0,58.0,1.5
5.0,80.34151275090771,79.48484419554748,241.0,50.0,1.5
6.0,80.23512477552525,79.37408015347538,267.0,59.5,1.5
7.0,80.12205281504212,79.2567436528715,284.0,65.0,1.5
8.0,80.00233037512052,79.1328695296027,289.0,67.0,1.5
9.0,79.8759929321032,79.00249456048122,295.0,69.0,1.5
10.0,79.74307792250114,78.86565745234626,326.0,77.5,1.5
11.0,79.6036247319002,78.7223988305722,338.0,80.0,1.5
12.0,79.4576746832904,78.57276122700758,370.0,80.25,0.5
13.0,79.30527102482102,78.41678906734768,385.0,77.5,0.5
14.0,79.14645891698521,78.25452865794517,386.0,77.0,0.5
15.0,78.98128541923795,78.08602817206224,389.0,76.75,0.5
16.0,78.80979947605137,77.91133763556851,392.0,75.75,0.5
17.0,78.63205190241139,77.73050891208894,394.0,75.0,0.5
18.0,78.44809536876019,77.54359568760603,395.0,74.75,0.5
19.0,78.25798438538882,77.35065345452122,405.0,71.75,0.5
20.0,78.06177528628456,77.1517394951797,418.0,67.375,0.5
21.0,77.85952621243803,76.94691286486393,423.0,65.375,0.5
22.0,77.65129709461469,76.73623437426093,428.0,63.5,0.5
23.0,77.43714963559611,76.51976657140813,429.0,63.25,0.5
24.0,77.21714729189608,76.29757372312369,436.0,60.5,0.5
25.0,76.99135525495707,76.06972179592631,437.0,60.0,0.5
26.0,76.75984043183263,75.83627843645066,438.0,59.75,0.5
27.0,76.52267142536134,75.5973129513637,441.0,58.625,0.5
28.0,76.27991851383834,75.35289628678849,444.0,57.375,0.5
29.0,76.03165363019036,75.10310100724095,472.0,46.75,0.5
30.0,75.77795034066041,74.84800127408637,477.0,45.0,0.5
31.0,75.51888382300857,74.58767282352176,498.0,39.0,0.5
32.0,75.25453084423509,74.32219294409056,512.0,36.0,0.5
33.0,74.98496973783281,74.05164045373662,520.0,35.0,0.5
34.0,74.71028038057518,73.77609567640405,528.0,34.5,0.5
35.0,74.430544168847,73.49564041818992,529.0,34.5,0.5
36.0,74.14584399452505,73.21035794305698,530.0,34.25,0.5
37.0,73.85626422041527,72.92033294811355,531.0,34.25,0.5
38.0,73.56189065525439,72.62565153846793,532.0,34.25,0.5
39.0,73.26281052828288,72.32640120166475,536.0,34.25,0.5
40.0,72.95911246339702,72.02267078171091,550.0,34.75,0.5
41.0,72.6508864528878,71.71455045269886,551.0,35.0,0.5
42.0,72.33822383077418,71.40213169203486,553.0,35.25,0.5
43.0,72.0212172457389,71.08550725328045,564.0,36.75,0.5
44.0,71.69996063367469,70.76477113861499,577.0,39.75,0.5
45.0,71.37454918984896,70.4400185709274,581.0,40.75,0.5
46.0,71.0450793406955,70.11134596554568,590.0,43.75,0.5
47.0,70.71164871524113,69.77885090161219,593.0,44.25,0.5
48.0,70.3743561161762,69.44263209311362,594.0,44.5,0.5
49.0,70.0333014905772,69.10278935957385,598.0,46.0,0.5
50.0,69.68858590029026,68.75942359641874,599.0,46.25,0.5
51.0,69.34031149198432,68.4126367450214,624.0,55.25,0.5
52.0,68.98858146688296,68.06253176243695,625.0,56.0,0.5
53.0,68.63350005018357,67.70921259083576,646.0,64.25,0.5
54.0,68.27517246017322,67.35278412664424,,,
55.0,67.91370487705015,66.99335218940217,,,
56.0,67.54920441146035,66.63102349034628,,,
57.0,67.18177907275835,66.26590560072873,,,
58.0,66.81153773700167,65.8981069198805,,,
59.0,66.4385901146886,65.5277366430289,,,
60.0,66.06304671824847,65.15490472887869,,,
61.0,65.68501882929453,64.77972186696663,,,
62.0,65.30461846564882,64.40229944479903,,,
63.0,64.92195834814878,64.02274951478205,,,
64.0,64.53715186724568,63.64118476095463,,,
65.0,64.15031304940467,63.2577184655339,,,
66.0,63.761556523316116,62.87246447528296,,,
67.0,63.37099748592873,62.485537167711065,,,
68.0,62.97875166831428,62.09705141711631,,,
69.0,62.58493530137386,61.707122560480684,,,
70.0,62.18966508139626,61.31586636322791,,,
71.0,61.79305813547828,60.92339898485395,,,
72.0,61.39523198681748,60.52983694444062,,,
73.0,60.99630451988749,60.13529708606239,,,
74.0,60.59639394550634,59.73989654409672,,,
75.0,60.195618765807986,59.3437527084482,,,
76.0,59.79409773912761,58.94698318969681,,,
77.0,59.391949844810945,58.54970578418069,,,
78.0,58.98929424795815,58.1520384390238,,,
79.0,58.58625026411257,57.754099217118664,,,
80.0,58.18293732390505,57.35600626207498,,,
81.0,57.77947493766397,56.95787776314398,,,
82.0,57.375982660001796,56.559831920129554,,,
83.0,56.97258005438848,56.16198690829591,,,
84.0,56.5693866577222,55.76446084328284,,,
85.0,56.16652194490803,55.36737174603843,,,
86.0,55.764105293454904,54.97083750778004,,,
87.0,55.3622559481015,54.574975854993724,,,
88.0,54.96109298548147,54.17990431448262,,,
89.0,54.56073527883845,53.78574017847452,,,
90.0,54.16130146280135,53.392600469799206,,,
91.0,53.762909898230326,53.00060190714567,,,
92.0,53.36567863714398,52.60986087040971,,,
93.0,52.96972538773792,52.22049336614202,,,
94.0,52.575167479505296,51.83261499310721,,,
95.0,52.1821218284696,51.4463409079638,,,
96.0,51.79070490253984,51.061785791075614,,,
97.0,51.40103268699864,50.67906381246439,,,
98.0,51.013220650133285,50.29828859791408,,,
99.0,50.62738370901996,49.9195731952366,,,
100.0,50.24363619547135,49.54303004070926,,,
101.0,49.8620918221577,49.16877092569371,,,
102.0,49.482863648911206,48.79690696344633,,,
103.0,49.10606404922402,48.427548556130056,,,
104.0,48.73180467694952,48.06080536203713,,,
105.0,48.36019643321689,47.69678626303288,,,
106.0,47.99134943356873,47.33559933222992,,,
107.0,47.62537297533139,46.977351801902465,,,
108.0,47.262375505227865,46.62215003165032,,,
109.0,46.90246458724268,46.270099476821905,,,
110.0,46.54574687074835,45.92130465720576,,,
111.0,46.19232805890286,45.575869125999844,,,
112.0,45.842312877327565,45.23389543906775,,,
113.0,45.49580504307472,44.89548512449107,,,
114.0,45.15290723389386,44.5607386524268,,,
115.0,44.81372105780619,44.22975540527898,,,
116.0,44.478347022995905,43.90263364819314,,,
117.0,44.14688450802751,43.579470499882525,,,
118.0,43.81943173239773,43.26036190379467,,,
119.0,43.49608572743099,42.94540259962681,,,
120.0,43.17694230752693,42.63468609519886,,,
121.0,42.86209604176855,42.32830463869192,,,
122.0,42.55164022589935,42.026349191260906,,,
123.0,42.24566685467774,41.72890940002916,,,
124.0,41.94426659461707,41.436073571473294,,,
125.0,41.64752875711913,41.14792864520601,,,
126.0,41.35554127200932,40.86456016816466,,,
127.0,41.06839066148107,40.586052269213404,,,
128.0,40.7861620144575,40.31248763416628,,,
129.0,40.50893896137771,40.04394748123874,,,
130.0,40.23680364941531,39.78051153693487,,,
131.0,39.96983671813638,39.52225801237755,,,
132.0,39.70811727560427,39.26926358008838,,,
133.0,39.451722874938184,39.02160335122457,,,
134.0,39.20072949133248,38.77935085327927,,,
135.0,38.95521149954361,38.542578008252065,,,
136.0,38.71524165185124,38.31135511129618,,,
137.0,38.480891056500205,38.085750809848676,,,
138.0,38.25222915662963,37.86583208324974,,,
139.0,38.02932370969537,37.651664222857384,,,
140.0,37.81224076739204,37.44331081266307,,,
141.0,37.601044656080475,37.24083371041446,,,
142.0,37.39579795772646,37.04429302925047,,,
143.0,37.19656149135626,36.853747119854425,,,
144.0,37.003394295034795,36.669252553130384,,,
145.0,36.81635360837118,36.49086410340787,,,
146.0,36.63549485555757,36.318634732180044,,,
147.0,36.46087162894565,36.152615572379986,,,
148.0,36.29253567316616,35.99285591319993,,,
149.0,36.130536869795776,35.8394031854579,,,
150.0,35.974923222576166,35.69230294751599,,,
151.0,35.82574084318941,35.55159887175466,,,
152.0,35.683033937594146,35.41733273160684,,,
153.0,35.546844792926365,35.28954438915595,,,
154.0,35.41721376496885,35.16827178330122,,,
155.0,35.29417926619283,35.05355091849417,,,
156.0,35.17777775437558,34.94541585404917,,,
157.0,35.06804372179725,34.84389869403172,,,
158.0,34.96500968501992,34.74902957772711,,,
159.0,34.86870617525234,34.66083667069233,,,
160.0,34.779161729302864,34.57934615639415,,,
161.0,34.69640288112335,34.50458222843545,,,
162.0,34.62045415394659,34.43656708337248,,,
163.0,34.55133805301956,34.375320914124934,,,
164.0,34.48907505893462,34.3208619039809,,,
165.0,34.43368362156065,34.27320622119844,,,
166.0,34.38518015457599,34.23236801420545,,,
167.0,34.3435790306047,34.198359407399124,,,
168.0,34.308892576957646,34.17119049754638,,,
169.0,34.28113107197964,34.150869350786195,,,
170.0,34.26030274200373,34.13740200023497,,,
171.0,34.24641375891362,34.13079244419524,,,
172.0,34.23946823831474,34.13104264496869,,,
173.0,34.23946823831474,34.13815252827357,,,
174.0,34.24641375891362,34.15211998326675,,,
175.0,34.26030274200373,34.172940863170375,,,
176.0,34.28113107197964,34.20060898650301,,,
177.0,34.308892576957646,34.23511613891489,,,
178.0,34.3435790306047,34.276452075626594,,,
179.0,34.38518015457599,34.32460452447066,,,
180.0,34.43368362156065,34.37955918953503,,,
181.0,34.48907505893462,34.44129975540734,,,
182.0,34.55133805301956,34.50980789201881,,,
183.0,34.62045415394658,34.58506326008619,,,
184.0,34.69640288112335,34.66704351715026,,,
185.0,34.779161729302864,34.75572432420911,,,
186.0,34.86870617525234,34.85107935294404,,,
187.0,34.96500968501992,34.953080293536175,,,
188.0,35.06804372179725,35.06169686307133,,,
189.0,35.17777775437559,35.17689681453065,,,
190.0,35.29417926619281,35.298645946364374,,,
191.0,35.41721376496884,35.4269081126459,,,
192.0,35.546844792926365,35.56164523380308,,,
193.0,35.683033937594146,35.70281730792364,,,
194.0,35.82574084318941,35.850382422631256,,,
195.0,35.97492322257616,36.0042967675289,,,
196.0,36.130536869795776,36.16451464720559,,,
197.0,36.29253567316615,36.33098849480289,,,
198.0,36.46087162894564,36.503668886136936,,,
199.0,36.63549485555757,36.682504554371924,,,
200.0,36.81635360837119,36.86744240524065,,,
201.0,37.003394295034795,37.05842753280756,,,
202.0,37.19656149135627,37.255403235769776,,,
203.0,37.39579795772645,37.45831103429095,,,
204.0,37.601044656080475,37.667090687363356,,,
205.0,37.81224076739204,37.88168021069269,,,
206.0,38.02932370969537,38.10201589510059,,,
207.0,38.252229156629625,38.32803232543904,,,
208.0,38.4808910565002,38.55966240001146,,,
209.0,38.715241651851244,38.79683735049444,,,
210.0,38.95521149954361,39.03948676235423,,,
211.0,39.20072949133249,39.287538595752025,,,
212.0,39.451722874938184,39.54091920693177,,,
213.0,39.708117275604266,39.799553370084155,,,
214.0,39.96983671813638,40.06336429968033,,,
215.0,40.23680364941531,40.33227367326856,,,
216.0,40.50893896137771,40.60620165472736,,,
217.0,40.78616201445749,40.885066917967876,,,
218.0,41.06839066148106,41.168786671078706,,,
219.0,41.355541272009305,41.45727668090585,,,
220.0,41.64752875711913,41.75045129806055,,,
221.0,41.94426659461706,42.04822348234766,,,
222.0,42.24566685467774,42.35050482860687,,,
223.0,42.55164022589935,42.6572055929592,,,
224.0,42.862096041768545,42.96823471945087,,,
225.0,43.17694230752693,43.28349986708687,,,
226.0,43.49608572743097,43.60290743724585,,,
227.0,43.81943173239773,43.92636260146857,,,
228.0,44.146884508027505,44.253769329611345,,,
229.0,44.478347022995905,44.58503041835624,,,
230.0,44.81372105780617,44.920047520069744,,,
231.0,45.15290723389386,45.258721172001,,,
232.0,45.49580504307471,45.60095082581109,,,
233.0,45.84231287732757,45.94663487742482,,,
234.0,46.19232805890285,46.29567069719574,,,
235.0,46.545746870748346,46.64795466037566,,,
236.0,46.90246458724267,47.003382177879786,,,
237.0,47.262375505227865,47.36184772733793,,,
238.0,47.62537297533137,47.723244884422876,,,
239.0,47.99134943356872,48.087466354446654,,,
240.0,48.36019643321688,48.454404004214965,,,
241.0,48.73180467694952,48.823948894130844,,,
242.0,49.10606404922402,49.19599131053749,,,
243.0,49.48286364891121,49.570420798290954,,,
244.0,49.862091822157694,49.94712619355314,,,
245.0,50.24363619547136,50.325995656794994,,,
246.0,50.627383709019945,50.706916706000364,,,
247.0,51.01322065013328,51.0897762500607,,,
248.0,51.401032686998626,51.474460622350435,,,
249.0,51.79070490253983,51.86085561447336,,,
250.0,52.18212182846958,52.248846510169805,,,
251.0,52.57516747950529,52.6383181193745,,,
252.0,52.96972538773791,53.029154812415285,,,
253.0,53.365678637143986,53.421240554342226,,,
254.0,53.76290989823032,53.81445893937697,,,
255.0,54.16130146280135,54.20869322547242,,,
256.0,54.56073527883844,54.60382636897204,,,
257.0,54.961092985481464,54.999741059358776,,,
258.0,55.36225594810148,55.3963197540833,,,
259.0,55.76410529345489,55.79344471346088,,,
260.0,56.16652194490803,56.190998035627146,,,
261.0,56.56938665772219,56.588861691541624,,,
262.0,56.97258005438847,56.98691756002935,,,
263.0,57.375982660001796,57.38504746284964,,,
264.0,57.779474937663956,57.78313319978183,,,
265.0,58.18293732390505,58.18105658371763,,,
266.0,58.586250264112564,58.5786994757495,,,
267.0,58.989294247958135,58.97594382024472,,,
268.0,59.391949844810945,59.37267167989483,,,
269.0,59.794097739127594,59.76876527072974,,,
270.0,60.195618765807986,60.16410699708659,,,
271.0,60.59639394550633,60.55857948652251,,,
272.0,60.99630451988749,60.95206562466108,,,
273.0,61.39523198681748,61.344448589962354,,,
274.0,61.79305813547827,61.73561188840581,,,
275.0,62.18966508139626,62.125439388076046,,,
276.0,62.58493530137387,62.513815353641114,,,
277.0,62.978751668314274,62.900624480712885,,,
278.0,63.37099748592874,63.28575193007975,,,
279.0,63.7615565233161,63.66908336180099,,,
280.0,64.15031304940467,64.05050496915297,,,
281.0,64.53715186724568,64.42990351241714,,,
282.0,64.92195834814876,64.80716635249958,,,
283.0,65.3046184656488,65.18218148437218,,,
284.0,65.68501882929455,65.5548375703258,,,
285.0,66.06304671824847,65.92502397302503,,,
286.0,66.4385901146886,66.29263078835525,,,
287.0,66.81153773700167,66.65754887805187,,,
288.0,67.18177907275835,67.01966990210218,,,
289.0,67.54920441146034,67.37888635091038,,,
290.0,67.91370487705014,67.7350915772158,,,
291.0,68.27517246017321,68.0881798277554,,,
292.0,68.63350005018357,68.43804627466065,,,
293.0,68.98858146688295,68.78458704657966,,,
294.0,69.34031149198431,69.1276992595155,,,
295.0,69.68858590029025,69.46728104737124,,,
296.0,70.03330149057722,69.80323159219282,,,
297.0,70.3743561161762,70.13545115410075,,,
298.0,70.71164871524113,70.46384110090176,,,
299.0,71.04507934069548,70.7883039373716,,,
300.0,71.37454918984896,71.10874333420016,,,
301.0,71.69996063367466,71.42506415659062,,,
302.0,72.0212172457389,71.7371724925039,,,
303.0,72.33822383077417,72.04497568054005,,,
304.0,72.65088645288779,72.34838233744824,,,
305.0,72.95911246339702,72.64730238525766,,,
306.0,73.26281052828288,72.94164707802038,,,
307.0,73.56189065525439,73.2313290281592,,,
308.0,73.85626422041527,73.51626223241192,,,
309.0,74.14584399452504,73.79636209736472,,,
310.0,74.430544168847,74.07154546456705,,,
311.0,74.71028038057517,74.34173063522042,,,
312.0,74.98496973783281,74.60683739443368,,,
313.0,75.25453084423508,74.86678703503819,,,
314.0,75.51888382300855,75.12150238095478,,,
315.0,75.77795034066041,75.37090781010667,,,
316.0,76.03165363019035,75.61492927687071,,,
317.0,76.27991851383834,75.85349433406064,,,
318.0,76.52267142536132,76.08653215443593,,,
319.0,76.75984043183263,76.31397355172949,,,
320.0,76.99135525495706,76.53575100118834,,,
321.0,77.21714729189608,76.75179865962092,,,
322.0,77.43714963559611,76.96205238494515,,,
323.0,77.65129709461469,77.16644975523155,,,
324.0,77.85952621243804,77.36493008723556,,,
325.0,78.06177528628456,77.55743445441364,,,
326.0,78.25798438538882,77.74390570441801,,,
327.0,78.44809536876019,77.92428847606446,,,
328.0,78.63205190241139,78.09852921576842,,,
329.0,78.80979947605135,78.26657619344451,,,
330.0,78.98128541923795,78.42837951786449,,,
331.0,79.14645891698521,78.58389115146949,,,
332.0,79.30527102482102,78.73306492463178,,,
333.0,79.4576746832904,78.87585654936198,,,
334.0,79.6036247319002,79.01222363245772,,,
335.0,79.74307792250113,79.1421256880896,,,
336.0,79.8759929321032,79.26552414982109,,,
337.0,80.00233037512052,79.38238238205838,,,
338.0,80.12205281504211,79.49266569092708,,,
339.0,80.23512477552525,79.59634133457246,,,
340.0,80.3415127509077,79.69337853288013,,,
341.0,80.44118521613636,79.78374847661428,,,
342.0,80.53411263610865,79.86742433597084,,,
343.0,80.6202674744245,79.94438126854293,,,
344.0,80.69962420154593,80.01459642669627,,,
345.0,80.77215930236207,80.07804896435242,,,
346.0,80.83785128315708,80.13472004317771,,,
347.0,80.8966806779793,80.18459283817614,,,
348.0,80.94863005440943,80.22765254268455,,,
349.0,80.99368401872606,80.2638863727685,,,
350.0,81.03182922046722,80.2932835710177,,,
351.0,81.06305435638637,80.31583540973975,,,
352.0,81.08735017380188,80.33153519355135,,,
353.0,81.10470947333869,80.34037826136601,,,
354.0,81.1151271110617,80.34236198777789,,,
355.0,81.1186,80.33748578384129,,,
356.0,81.1151271110617,80.32575109724546,,,
357.0,81.10470947333869,80.3071614118848,,,
358.0,81.08735017380188,80.28172224682459,,,
359.0,81.06305435638637,80.24944115466232,,,
360.0,81.03182922046722,80.21032771928557,,,
361.0,80.99368401872606,80.16439355302654,,,
362.0,80.94863005440943,80.11165229321452,,,
363.0,80.8966806779793,80.05211959812712,,,
364.0,80.83785128315708,79.98581314234153,,,
365.0,80.77215930236207,79.91275261148712,,,
366.0,80.69962420154593,79.83295969640096,,,
367.0,80.6202674744245,79.74645808668816,,,
368.0,80.53411263610865,79.65327346368859,,,
369.0,80.44118521613636,79.55343349285246,,,
370.0,80.34151275090771,79.44696781552673,,,
371.0,80.23512477552525,79.33390804015492,,,
372.0,80.12205281504212,79.21428773289297,,,
373.0,80.00233037512052,79.08814240764376,,,
374.0,79.87599293210322,78.9555095155135,,,
375.0,79.74307792250113,78.81642843369292,,,
376.0,79.6036247319002,78.67094045376663,,,
377.0,79.4576746832904,78.51908876945404,,,
378.0,79.30527102482102,78.3609184637858,,,
379.0,79.14645891698521,78.19647649571894,,,
380.0,78.98128541923796,78.0258116861956,,,
381.0,78.80979947605137,77.84897470364828,,,
382.0,78.63205190241139,77.66601804895727,,,
383.0,78.44809536876019,77.4769960398636,,,
384.0,78.25798438538882,77.28196479484271,,,
385.0,78.06177528628457,77.08098221644359,,,
386.0,77.85952621243803,76.8741079740981,,,
387.0,77.6512970946147,76.66140348640582,,,
388.0,77.43714963559611,76.44293190289964,,,
389.0,77.21714729189608,76.21875808529728,,,
390.0,76.99135525495709,75.98894858824463,,,
391.0,76.75984043183264,75.75357163955643,,,
392.0,76.52267142536132,75.51269711996024,,,
393.0,76.27991851383835,75.26639654234964,,,
394.0,76.03165363019036,75.01474303055284,,,
395.0,75.77795034066042,74.75781129762302,,,
396.0,75.51888382300857,74.49567762365703,,,
397.0,75.25453084423509,74.22841983314851,,,
398.0,74.98496973783283,73.95611727188279,,,
399.0,74.71028038057517,73.67885078338006,,,
400.0,74.43054416884702,73.39670268489373,,,
401.0,74.14584399452504,73.10975674297154,,,
402.0,73.85626422041528,72.81809814858612,,,
403.0,73.56189065525439,72.5218134918427,,,
404.0,73.2628105282829,72.22099073627174,,,
405.0,72.95911246339703,71.91571919271327,,,
406.0,72.6508864528878,71.60608949280173,,,
407.0,72.33822383077418,71.29219356205839,,,
408.0,72.0212172457389,70.9741245925997,,,
409.0,71.69996063367469,70.65197701546968,,,
410.0,71.37454918984895,70.32584647260435,,,
411.0,71.04507934069551,69.99582978843677,,,
412.0,70.71164871524113,69.66202494115097,,,
413.0,70.37435611617623,69.32453103359336,,,
414.0,70.0333014905772,68.98344826385014,,,
415.0,69.68858590029026,68.63887789549977,,,
416.0,69.34031149198432,68.29092222754888,,,
417.0,68.98858146688295,67.93968456406088,,,
418.0,68.63350005018359,67.58526918348616,,,
419.0,68.27517246017321,67.22778130770303,,,
420.0,67.91370487705015,66.86732707077852,,,
421.0,67.54920441146035,66.5040134874584,,,
422.0,67.18177907275835,66.13794842139578,,,
423.0,66.81153773700169,65.76924055312746,,,
424.0,66.43859011468861,65.39799934780811,,,
425.0,66.06304671824847,65.02433502271126,,,
426.0,65.68501882929456,64.64835851450691,,,
427.0,65.30461846564883,64.2701814463259,,,
